time,Voltage Inductor,Current Inductor
0,0.9900990099009900990099009901,0.09900990099009900990099009901
1.800000000000000000000000000,0.9704930889128516812077247329,0.09704930889128516812077247329
3.600000000000000000000000000,0.9512754039838843211838093916,0.09512754039838843211838093916
5.400000000000000000000000000,0.9324382672713321564078923739,0.09324382672713321564078923739
7.200000000000000000000000000,0.9139741431669493414295182675,0.09139741431669493414295182675
9.000000000000000000000000000,0.8958756452824552950645773117,0.08958756452824552950645773117
10.80000000000000000000000000,0.8781355334946839030831005332,0.08781355334946839030831005332
12.60000000000000000000000000,0.8607467110492446178735341860,0.08607467110492446178735341860
14.40000000000000000000000000,0.8437022217215368036582166774,0.08437022217215368036582166774
16.20000000000000000000000000,0.8269952470339816194273609016,0.08269952470339816194273609016
18.00000000000000000000000000,0.8106191035283582210228587055,0.08106191035283582210228587055
19.80000000000000000000000000,0.7945672400921531077352773450,0.07945672400921531077352773450
21.60000000000000000000000000,0.7788332353378530461959649223,0.07788332353378530461959649223
23.40000000000000000000000000,0.7634107950341331838950547258,0.07634107950341331838950547258
25.20000000000000000000000000,0.7482937495879127248080239391,0.07482937495879127248080239391
27.00000000000000000000000000,0.7334760515762708886732115839,0.07334760515762708886732115839
28.80000000000000000000000000,0.7189517733272358215707717505,0.07189517733272358215707717505
30.00000000000000000000000000,0.6993458523390974037685954933,0.2679543872141077601788397474
30.60000000000000000000000000,0.6851091835603402587869960527,0.2665307203362320456806798033
31.80000000000000000000000000,0.6466738137024055387391653702,0.2587659991528108901154614836
32.40000000000000000000000000,0.6327190591568911094997758195,0.2573705236982594471915225285
33.60000000000000000000000000,0.5958135700073730329742010237,0.2498364377975141675341819807
34.20000000000000000000000000,0.5821351472350371072841063156,0.2484685955202805749651725099
35.40000000000000000000000000,0.5467140206754405674184405724,0.2411590555218104880234225320
36.00000000000000000000000000,0.5333064577599825808509219971,0.2398182992302646893666706745
37.20000000000000000000000000,0.4993253784751688433539682711,0.2327273664809067526213004806
37.80000000000000000000000000,0.4861833118550664604808560042,0.2314131598188965143339892539
39.00000000000000000000000000,0.4535991375459693685054917591,0.2245350428110879958634646382
39.60000000000000000000000000,0.4407173098688393100457084480,0.2232468600433749900174863071
40.80000000000000000000000000,0.4094880421732345454034487966,0.2165759109162602351569649863
41.40000000000000000000000000,0.3968613001926813197844532739,0.2153132367182049125950654340
42.60000000000000000000000000,0.3669460562976471579507738755,0.2088439478396136393697842247
43.20000000000000000000000000,0.3545693488117583526410653928,0.2076062770910247588388133764
44.40000000000000000000000000,0.3259283337418366910303278410,0.2013332777184910298346761195
45.00000000000000000000000000,0.3137967095725001392911086352,0.2001201153015573746607541989
46.20000000000000000000000000,0.2863911891379286689686267435,0.1940381683205891907823348546
46.80000000000000000000000000,0.2744997951501631380559267299,0.1928490289218126376910648532
48.00000000000000000000000000,0.2482920695399035499702337464,0.1869530276596619992015951156
48.60000000000000000000000000,0.2366361487004106038280822479,0.1857874355757127045873799658
49.80000000000000000000000000,0.2115895267050438494013551365,0.1800724006889350064871909826
50.40000000000000000000000000,0.2001644161792042289253848558,0.1789298896363510444395939545
51.60000000000000000000000000,0.1762431900291022651769472671,0.1733909660704808357568877111
52.20000000000000000000000000,0.1650443193156555084727783781,0.1722710789991361600864708222
53.40000000000000000000000000,0.1422137401201698197260964370,0.1669035330188436187516205888
54.00000000000000000000000000,0.1312366292228309195903269319,0.1658058219291097287380436383
55.20000000000000000000000000,0.1094628829965615874799741576,0.1606050382172387037096022035
55.80000000000000000000000000,0.09870314063184325962412088036,0.1595290639807668709240168758
57.00000000000000000000000000,0.07795332489436861320351455986,0.1544905428046910390549937727
57.60000000000000000000000000,0.06740664673489223243391580296,0.1534358749887434009780338970
58.80000000000000000000000000,0.04764874767064830976891064106,0.1485552294325119952910454141
59.40000000000000000000000000,0.03731091462324076822247225558,0.1475214461277712411364015756
60.00000000000000000000000000,0.01809322969427340819855691438,0.3396982954174448413755549881
60.60000000000000000000000000,-0.00070390014042524447141766462,0.3349712486782235471122376421
61.20000000000000000000000000,-0.01083702362253758717535231969,0.3339579363300123128418441766
61.80000000000000000000000000,-0.04774251277205566370092711545,0.3186591292458458776192853091
62.40000000000000000000000000,-0.06560917620756678712553607921,0.3140815119931918794289465026
63.00000000000000000000000000,-0.07554164377914225175612549359,0.3130882652360343329658875612
63.60000000000000000000000000,-0.1094556486895697015307087672,0.2984722299292945006785312064
64.20000000000000000000000000,-0.1264213251794697065720683602,0.2940399777258373150363763055
64.80000000000000000000000000,-0.1361571102248753600218540238,0.2930663992212967496913977391
65.40000000000000000000000000,-0.1672137796449847584901866801,0.2791090796248560689162479213
66.00000000000000000000000000,-0.1833071459927522107137448300,0.2748182304069877263803883913
66.60000000000000000000000000,-0.1928501432154765640952179062,0.2738639306847152910422410837
67.20000000000000000000000000,-0.2211788891488244842351299041,0.2605420154135411885331843174
67.80000000000000000000000000,-0.2364278397365260389999912423,0.2563887070307505564820757302
68.40000000000000000000000000,-0.2457818667172162467699500002,0.2554533043326815357050798544
69.00000000000000000000000000,-0.2715075112344030657028215024,0.2427442054422446261437316640
69.60000000000000000000000000,-0.2859391777649772146043609215,0.2387246732537611995616210599
70.20000000000000000000000000,-0.2951079764886240519234294069,0.2378077933813965158297142114
70.80000000000000000000000000,-0.3183508943485008884028966887,0.2256896256987336008570201972
71.40000000000000000000000000,-0.3319916651129709297206674295,0.2218002002261759516014440186
72.00000000000000000000000000,-0.3409789034658524831324276281,0.2209014763908877962602679987
72.60000000000000000000000000,-0.3618551606587248356485988811,0.2093530374035058716000017243
73.20000000000000000000000000,-0.3747306993394144398921820032,0.2055901420382591501137017156
73.80000000000000000000000000,-0.3835399725763973486819271484,0.2047092147145608592347272011
74.40000000000000000000000000,-0.4021614608993493987152177665,0.1937099650027397590661871272
75.00000000000000000000000000,-0.4142967249199218750124145359,0.1900701137668152010886236091
75.60000000000000000000000000,-0.4229315571027071024399865099,0.1892066305485366783458664117
76.20000000000000000000000000,-0.4394061248743183964255012202,0.1787366747469502180366474072
76.80000000000000000000000000,-0.4508253833072141487831115343,0.1752164701061075366183463731
77.40000000000000000000000000,-0.4592892287141026390338999048,0.1743700855654186875932675360
78.00000000000000000000000000,-0.4737208077330481719297305050,0.1644101538403475370056454401
78.60000000000000000000000000,-0.4844476587746537415266980107,0.1610062845682883908175183898
79.20000000000000000000000000,-0.4927439032823959250398470075,0.1601766601175141724662034901
79.80000000000000000000000000,-0.5052326321317097671020076226,0.1507080901462684147171257342
80.40000000000000000000000000,-0.5152900201553561656848149444,0.1474173292387358507636509459
81.00000000000000000000000000,-0.5234219825936381079402778225,0.1466041329949076565381046581
81.60000000000000000000000000,-0.5340643263897779354467113267,0.1376088524344132687299113054
82.20000000000000000000000000,-0.5434745585864355661926286190,0.1344280550720581543144857984
82.80000000000000000000000000,-0.5514454920655436086014486678,0.1336309617241473500736037935
83.40000000000000000000000000,-0.5603343587488171508832925551,0.1250914711559788856359009773
84.00000000000000000000000000,-0.5691191213651293699938463685,0.1220175727148798836976916950
84.60000000000000000000000000,-0.5769322145773243818599175055,0.1212362633936603825110845813
85.20000000000000000000000000,-0.5841570678377272531610322921,0.1131356197331221371414963905
85.80000000000000000000000000,-0.5923374420208044337151073610,0.1101656338418707535149182282
86.40000000000000000000000000,-0.5999958205159262770293751091,0.1093997959923585691834914534
87.00000000000000000000000000,-0.6056427894459923335769469843,0.1017215963495286670176505307
87.60000000000000000000000000,-0.6132392667041730410779621106,0.09885261299181532011362926669
88.20000000000000000000000000,-0.6207459941399855409602641607,0.09810194024823407012539906168
88.80000000000000000000000000,-0.6248979797038642405005006786,0.09083030622919040221788641084
89.40000000000000000000000000,-0.6319304769924397078071187302,0.08805948989085134717793692858
90.00000000000000000000000000,-0.6581256930727684813785595395,0.2756950490795953340575547260
90.60000000000000000000000000,-0.6608624714784172108799989181,0.2688146115163393015770959842
91.20000000000000000000000000,-0.6673503459191096019181617006,0.2661391993758475939324927749
91.80000000000000000000000000,-0.7099838473045465801081527446,0.2428864932381856532383773234
92.40000000000000000000000000,-0.7113821703636580803062849566,0.2363823773360693926857643993
93.00000000000000000000000000,-0.7173442336064419525647905737,0.2337996774974759125337959547
93.60000000000000000000000000,-0.7554704585489098004797391188,0.2119796192054465504774864181
94.20000000000000000000000000,-0.7556041511069842118938399442,0.2058374300971919231897854753
94.80000000000000000000000000,-0.7610586833426440249377142604,0.2033448198645448111954409110
95.40000000000000000000000000,-0.7949576144905843711229808774,0.1828919402112991559549311659
96.00000000000000000000000000,-0.7938976690074006482611087948,0.1770977489069724404829030291
96.60000000000000000000000000,-0.7988624326390250193272577040,0.1746926730992651326999935229
97.20000000000000000000000000,-0.8288012090708714462667733930,0.1555440055915715954829939879
97.80000000000000000000000000,-0.8266158774295125619481255035,0.1500843353141466963872640558
98.40000000000000000000000000,-0.8311081304109381422772926158,0.1477643046198660968003555930
99.00000000000000000000000000,-0.8573415396652564730419977657,0.1298593003522786722692497374
99.60000000000000000000000000,-0.8540964222857956231653172337,0.1247211132486839157846532446
100.2000000000000000000000000,-0.8581329311348298643772923785,0.1224837026190511241996420330
100.8000000000000000000000000,-0.8809038844820521697728671212,0.1057641478156782950394438164
101.4000000000000000000000000,-0.8766620168140117827789309761,0.1009348320334776803514841782
102.0000000000000000000000000,-0.8802590693080843877148109956,0.09877767911349410917554413653
102.6000000000000000000000000,-0.8934022837478809021225445464,0.08382729296284529782288738173
103.2000000000000000000000000,-0.8882242202136313806831406444,0.07929465008295456805616945098
103.8000000000000000000000000,-0.8913976377753487961707556072,0.07721545367938624474945892567
104.4000000000000000000000000,-0.9016570793301210761264793317,0.06332811097979271158201741749
105.0000000000000000000000000,-0.8956009747894906058524159510,0.05908034379587395300214056053
105.6000000000000000000000000,-0.8983661245693964262567649320,0.05707686238132632547619126764
106.2000000000000000000000000,-0.9059492592495332259282525816,0.04420113633456505580127202711
106.8000000000000000000000000,-0.8990709480540524617723542915,0.04022683696998087556279979057
107.4000000000000000000000000,-0.9014427547177289843928872462,0.03829688722223552525058882099
108.0000000000000000000000000,-0.9065469657204657193594963650,0.02638337649499614787672275314
108.6000000000000000000000000,-0.8989000384238705188698647870,0.02267151484843596477786211011
109.2000000000000000000000000,-0.9008929956503528395817943690,0.02081297022423929600403935254
109.8000000000000000000000000,-0.9037059814368826247636687554,0.00981422878940917553055809651
110.4000000000000000000000000,-0.8953418592267430810204081669,0.006354141300525926093128634854
111.0000000000000000000000000,-0.8969700409250569572475745518,0.004564930643038150019319420750
111.6000000000000000000000000,-0.8976701994884588741571216711,-0.005564600153410412230471994310
112.2000000000000000000000000,-0.8886382064020925806561263658,-0.008783221426794660370389700046
112.8000000000000000000000000,-0.8899152776525707368656402890,-0.01050511524766408447310510214
113.4000000000000000000000000,-0.8886720774150533891606692566,-0.01980917246040816836849520388
114.0000000000000000000000000,-0.8790195104012140419330320861,-0.02279629046175445749499615052
114.6000000000000000000000000,-0.8799587381280925702121617498,-0.02445283187688131269612334428
115.2000000000000000000000000,-0.8769330758929939470988152057,-0.03297339463994998288448835938
115.8000000000000000000000000,-0.8667052727792019804567500254,-0.03573863763812988790226751058
116.4000000000000000000000000,-0.8673195361608489169842070445,-0.03733173967531895021786676212
117.0000000000000000000000000,-0.8626640825321467972671349093,-0.04510909084828524606675765879
117.6000000000000000000000000,-0.8519044879559457092381691934,-0.04766176247419655491798386383
118.2000000000000000000000000,-0.8522062885789276699295068696,-0.04919328802365725096357804148
118.8000000000000000000000000,-0.8460658212486881619214723595,-0.05626607386606483802431089310
119.4000000000000000000000000,-0.8348160506095674895539976415,-0.05861516286934937255817470873
120.0000000000000000000000000,-0.8532816464770001648401616317,0.1245543151246184694356826088
120.6000000000000000000000000,-0.8457933717692156527043516681,0.1181490271915760152186609255
121.2000000000000000000000000,-0.8340932732564382066690021154,0.1159948374582928130737763933
121.8000000000000000000000000,-0.8677872713150608756137924781,0.08510938137622490766618280113
122.4000000000000000000000000,-0.8590811343626930552031442143,0.07933604686343427913482148221
123.0000000000000000000000000,-0.8469688491127990423441146038,0.07736836922555181304290543696
123.6000000000000000000000000,-0.8747333880947676202839666477,0.04895923454107880840111584143
124.2000000000000000000000000,-0.8649323720155071350298126891,0.04378377778494278849742021200
124.8000000000000000000000000,-0.8524443924518402352297192093,0.04199451228509638517869756402
125.4000000000000000000000000,-0.8747605788248276693780057872,0.01592012087975795190483249939
126.0000000000000000000000000,-0.8639809932501000242660180502,0.01130988268122237323019034457
126.6000000000000000000000000,-0.8511522196553094157304554915,0.009691207869831689194222203370
127.2000000000000000000000000,-0.8684734995734933492253118886,-0.01418346527286488406621454021
127.8000000000000000000000000,-0.8568252588745724541304223175,-0.01825977831626180522059072621
128.4000000000000000000000000,-0.8436890542456892930401828222,-0.01971541384579664673139195070
129.0000000000000000000000000,-0.8564424978938203330481581546,-0.04151910340362900833976585454
129.6000000000000000000000000,-0.8440293894385476059590294084,-0.04509146792375040712778141955
130.2000000000000000000000000,-0.8306176326729136784224546655,-0.04639135376172323008033267131
130.8000000000000000000000000,-0.8342442546222967247219642711,-0.06575066609475659441003932275
131.4000000000000000000000000,-0.8211641973858367994083138700,-0.06884778938650717786724030633
132.0000000000000000000000000,-0.8075073348448761132709052834,-0.06999896130180194092302749129
132.6000000000000000000000000,-0.8140969238209682806448879035,-0.08692262779403962045385586319
133.2000000000000000000000000,-0.8004422176642538633957312169,-0.08957199370483395635171773508
133.8000000000000000000000000,-0.7865693131608239931694594275,-0.09058124141423103418456257774
134.4000000000000000000000000,-0.7899414850829639172334182343,-0.1058317454615157877539723390
135.0000000000000000000000000,-0.7757990510029842914965965257,-0.1080596587833735367327606870
135.6000000000000000000000000,-0.7617378342568225103419483151,-0.1089335335012955681836800569
136.2000000000000000000000000,-0.7622167625399254348397810182,-0.1226154658443808102755313327
136.8000000000000000000000000,-0.7476683741867878001694950933,-0.1244470952541031506313851477
137.4000000000000000000000000,-0.7334452877913766273406172971,-0.1251919170286750359227616331
138.0000000000000000000000000,-0.7313347351834985037778399481,-0.1374047935954002744370108779
138.6000000000000000000000000,-0.7164572419302312413908488046,-0.1388642131869742112482092488
139.2000000000000000000000000,-0.7020974868732482201606339370,-0.1394860780281208099702034778
139.8000000000000000000000000,-0.6976817994812690545038328054,-0.1503245493024059923961920593
140.4000000000000000000000000,-0.6825473413236338212618314976,-0.1514347787545117641350953313
141.0000000000000000000000000,-0.6680749211020203584182009275,-0.1519395655596695815472581269
141.6000000000000000000000000,-0.6616199813152019828801072617,-0.1614936182337764979341948873
142.2000000000000000000000000,-0.6462961958703301291228068136,-0.1622766616540369313482830177
142.8000000000000000000000000,-0.6317339592399133285711102502,-0.1626700389369124910167801558
143.4000000000000000000000000,-0.6234880990684991680866779317,-0.1710251901087634240932299225
144.0000000000000000000000000,-0.6080383209329604229984769574,-0.1715020735951719039881470547
144.6000000000000000000000000,-0.5934080033314893068386251819,-0.1717895060228395004012020373
145.2000000000000000000000000,-0.5836028796259891735913179232,-0.1790269901918482949535016721
145.8000000000000000000000000,-0.5680863323459301004100803481,-0.1792177981506430959889505478
146.4000000000000000000000000,-0.5534085960273427227883063193,-0.1794045528941381141951180984
147.0000000000000000000000000,-0.5422600289942628999266671208,-0.1856015020009262157861378617
147.6000000000000000000000000,-0.5267320098925127283527904614,-0.1855254122590423986770798292
148.2000000000000000000000000,-0.5120264828092327593885690967,-0.1856165651624732938953856380
148.8000000000000000000000000,-0.4997352591907208815205155176,-0.1908461819100057423685096807
149.4000000000000000000000000,-0.4842473172882465878643942398,-0.1905214996591307803000138968
150.0000000000000000000000000,-0.4876311286418103492113963648,-0.0095369623872625819694731908
150.6000000000000000000000000,-0.4743837708799375541463369073,-0.01386868707333930546640793199
151.2000000000000000000000000,-0.4589838781417322638459342766,-0.01331287768152423397771724588
151.8000000000000000000000000,-0.4768618776387199509249926259,-0.04935553351915317498769570925
152.4000000000000000000000000,-0.4628313802998725726440197736,-0.05285520460282228364989491656
153.0000000000000000000000000,-0.4475640964282754541963614859,-0.05208492532855563661114217199
153.6000000000000000000000000,-0.4586088242054614014582258650,-0.08437498668894409377310340982
154.2000000000000000000000000,-0.4439553588965155734532547794,-0.08710499530625948235088653484
154.8000000000000000000000000,-0.4288619898880814892179534495,-0.08613612594889578726606970185
155.4000000000000000000000000,-0.4337977528948967207791404626,-0.1149357122922144871108821256
156.0000000000000000000000000,-0.4186693428604574650572654763,-0.1169551509298333757021380081
156.6000000000000000000000000,-0.4037880935358150125374032633,-0.1158028234492807536325636721
